x,y,temp,type,title,medium,s_rate
0,0,1000,tensile,D12,Air,0.35835590942921364
0.0,16.59,,,,,
7.179997421377557e-07,16.830012083939998,,,,,
2.9009957921072363e-06,17.05004946205,,,,,
4.365990469027629e-06,17.2500753135,,,,,
6.5489785554709805e-06,17.48011447652,,,,,
9.47895507459783e-06,17.7001677783,,,,,
1.1661931999319036e-05,17.94020921628,,,,,
1.3844904158884432e-05,18.21025211745,,,,,
1.602787155287074e-05,18.410295075479997,,,,,
1.7492846999350365e-05,18.670326594310005,,,,,
2.042279145342208e-05,18.9003859947,,,,,
2.2605744488157803e-05,19.14043267884,,,,,
2.40707102980318e-05,19.400466977399997,,,,,
2.697163626205144e-05,19.650529999799996,,,,,
2.8436595676283947e-05,19.9005658963,,,,,
3.1366508066002346e-05,20.14063173138,,,,,
3.354943721127547e-05,20.3906840845,,,,,
3.6479334620876344e-05,20.630752582399996,,,,,
3.866225260547412e-05,20.900808056699997,,,,,
4.1591135076840726e-05,21.14087925488,,,,,
4.377404190261602e-05,21.3809359095,,,,,
4.595794391744585e-05,21.62099363358,,,,,
4.960476966299422e-05,21.87108488322,,,,,
5.2534620032786706e-05,22.121162096320003,,,,,
5.546446181835912e-05,22.421243547720003,,,,,
5.8365296712991465e-05,22.631320845210002,,,,,
6.054816692268189e-05,22.921387806000002,,,,,
6.276003054807605e-05,23.151452940299997,,,,,
6.566084427957596e-05,23.391535857570002,,,,,
6.859064760769682e-05,23.66162291038,,,,,
7.223839074465065e-05,23.921728004720002,,,,,
7.44212306714205e-05,24.201801060799998,,,,,
7.660406583363264e-05,24.44187227508,,,,,
7.953383710048897e-05,24.721966154639997,,,,,
8.243460217477915e-05,24.98205930124,,,,,
8.608229481298436e-05,25.2521736715,,,,,
8.972997414535452e-05,25.522290011679996,,,,,
9.194177322558391e-05,25.7523676095,,,,,
9.558943118477938e-05,26.06249117964,,,,,
9.777222014061658e-05,26.332574468409994,,,,,
0.00010141485733952819,26.6126987862,,,,,
0.00010653432501725984,26.8628616644,,,,,
0.00010943401187999442,27.152971295999997,,,,,
0.00011236368696455988,27.403078938,,,,,
0.00011526335692404399,27.6931918263,,,,,
0.0001181930149303753,27.933301326,,,,,
0.00012184257689172663,28.2134373885,,,,,
0.00012477221562328511,28.453549991,,,,,
0.00012767184960262883,28.7236669696,,,,,
0.00012985156892002494,29.0137672386,,,,,
0.00013278118418848055,29.3138920749,,,,,
0.0001378904926689437,29.594080460999997,,,,,
0.0001415399827439687,29.894230929499997,,,,,
0.00014372967039598747,30.1643351984,,,,,
0.000147369140634786,30.464489194800002,,,,,
0.00014955881552282087,30.7345962861,,,,,
0.000153948149375541,31.0447789184,,,,,
0.00015684769875649063,31.314911286599997,,,,,
0.00015977723493785544,31.615050961900003,,,,,
0.00016560628652190738,31.8652766532,,,,,
0.00016853579704460036,32.185423938999996,,,,,
0.00017143530412853705,32.465565267,,,,,
0.0001743647975751364,32.755710945000004,,,,,
0.0001780141545402181,33.025878550600005,,,,,
0.00018094362871420993,33.3460332064,,,,,
0.00018531282851720575,33.6162289413,,,,,
0.0001889621455290841,33.91640831179999,,,,,
0.00019260145114965817,34.2165895302,,,,,
0.0002020795805462286,34.336938093,,,,,
0.000205008984222128,34.6471022392,,,,,
0.00020790838555365996,34.9572671535,,,,,
0.0002108377721547113,35.247430706399996,,,,,
0.00021448699601955934,35.5676279756,,,,,
0.00021813620656762118,35.8778253992,,,,,
0.00022178540379899398,36.1780228677,,,,,
0.00022614442742122527,36.468246158199996,,,,,
0.00023054342282277903,36.7684757532,,,,,
0.00023419257477813612,37.0886848776,,,,,
0.0002385515443176694,37.4389300494,,,,,
0.0002422006670503446,37.7391393379,,,,,
0.0002480292382053808,38.0394337218,,,,,
0.00025167832635279274,38.32964552719999,,,,,
0.0002546075847379818,38.609829104000006,,,,,
0.00025825664888077214,38.96006039550001,,,,,
0.00026261551352723013,39.2603090125,,,,,
0.0002684739576415722,39.5806249407,,,,,
0.0002721229711855215,39.860845576,,,,,
0.0002757719714142196,40.201084803899995,,,,,
0.0002801307597145924,40.481338479899996,,,,,
0.00028452951763745135,40.831616147400005,,,,,
0.00028949809138351795,41.1219029894,,,,,
0.0002955263277928237,41.432242509400005,,,,,
0.000298395475641446,41.7524568856,,,,,
0.0003035639198106613,42.0527637644,,,,,
0.0003070128667263631,42.42302241459999,,,,,
0.0003121812663573807,42.703329098699996,,,,,
0.0003173496392759596,43.073667244,,,,,
0.0003225179854828199,43.3839898609,,,,,
0.00032596686702768767,43.734253594399995,,,,,
0.0003305553605565248,44.0345534522,,,,,
0.00033544373245986543,44.35487607,,,,,
0.0003406119851510536,44.6552075088,,,,,
0.0003457802111317659,45.005559341600005,,,,,
0.0003500887117950916,45.335868798,,,,,
0.00035525688879807575,45.6462132516,,,,,
0.0003604250390913663,45.9865717253,,,,,
0.00036559316267479556,46.3269337146,,,,,
0.00036990157797503595,46.6572554008,,,,,
0.0003756394386710461,46.9776433416,,,,,
0.0003799478106880679,47.2979673456,,,,,
0.00038597550187138396,47.6083721195,,,,,
0.0003902838293571264,47.87868262959999,,,,,
0.0003968912282554811,48.219133954,,,,,
0.00040348858753058676,48.519573145,,,,,
0.00040923625142126813,48.8299789092,,,,,
0.00041440412274935,49.200384618200005,,,,,
0.00041957196737045396,49.53077736659999,,,,,
0.0004244499083916545,49.8811675644,,,,,
0.00042904794576541125,50.2015342452,,,,,
0.0004353652148100284,50.5019820208,,,,,
0.0004399532063936407,50.8523677415,,,,,
0.000444841043550183,51.2027720292,,,,,
0.0004508683435910017,51.53322946469999,,,,,
0.0004574653467704701,51.9137433073,,,,,
0.0004632127004301456,52.2141806708,,,,,
0.0004726882652974419,52.504812543999996,,,,,
0.0004901998324275046,52.7458496704,,,,,
0.0004953672853642361,53.0862906994,,,,,
0.0005005347115983139,53.436740250599996,,,,,
0.0005054122577049731,53.807187941200006,,,,,
0.0005114491875638719,54.1376815938,,,,,
0.0005171862361392244,54.468162900799996,,,,,
0.0005237927965987272,54.8487218426,,,,,
0.0005303893187144748,55.1692534242,,,,,
0.0005369957919478782,55.519805898600005,,,,,
0.0005427426885374478,55.8503041198,,,,,
0.000549918766954252,56.1908919312,,,,,
0.0005573746378929198,56.5014837191,,,,,
0.0005645606056668294,56.842081743200005,,,,,
0.0005711568588629696,57.19265665119999,,,,,
0.0005769035591365595,57.553193066400006,,,,,
0.0005834997309162243,57.873759472799996,,,,,
0.0005924044938026392,58.2044703786,,,,,
0.0005995802158525621,58.53508596,,,,,
0.0006061862319954789,58.87567881080001,,,,,
0.0006133618551522935,59.23632216,,,,,
0.0006193881395562584,59.5668835974,,,,,
0.0006257042062888864,59.917478892,,,,,
0.0006331695058751365,60.2681478751,,,,,
0.0006397653065266164,60.61876938259999,,,,,
0.000649239198613837,60.9695709885,,,,,
0.0006558448867179405,61.3001902356,,,,,
0.0006630201535530881,61.65086221639999,,,,,
0.000671054792360028,61.981579083199996,,,,,
0.0006776603363591714,62.2921986525,,,,,
0.0006848354466651373,62.642885382,,,,,
0.0006928699101966926,62.9836243434,,,,,
0.0007003347083893291,63.3343397082,,,,,
0.000706650263880333,63.674980047,,,,,
0.0007141149592067249,64.03571253630001,,,,,
0.0007212898079522348,64.3564028805,,,,,
0.0007287543940000982,64.6871238528,,,,,
0.0007350697700081178,65.0177750398,,,,,
0.0007431038299455926,65.3585501478,,,,,
0.0007505682531629736,65.689285794,,,,,
0.0007586021885861709,66.0200639733,,,,,
0.0007672156148193378,66.3909166134,,,,,
0.0007761087496751026,66.6717244342,,,,,
0.0007832831536399253,67.04249269409999,,,,,
0.0007913268183291528,67.34326945560001,,,,,
0.0008002197387640497,67.6941485256,,,,,
0.0008096921108524424,67.99503275880001,,,,,
0.0008174358082958235,68.3458455133,,,,,
0.0008263384882898529,68.69674331520001,,,,,
0.0008358106129759124,68.9976448704,,,,,
0.0008461419209366754,69.348653985,,,,,
0.0008547545931890643,69.70955910800001,,,,,
0.000864216457357876,70.0104780705,,,,,
0.0008736882232678056,70.3314208989,,,,,
0.0008831598994640136,70.682396301,,,,,
0.0008954989211281144,70.973528269,,,,,
0.0009049703907439078,71.2744721098,,,,,
0.0009144417706515921,71.60544908440001,,,,,
0.0009247722662857834,71.926484872,,,,,
0.000933384261350319,72.2373937894,,,,,
0.0009460123891424327,72.5886372792,,,,,
0.0009554833803357975,72.8896115508,,,,,
0.000964954281830116,73.2106108188,,,,,
0.0009772922942790617,73.5118074288,,,,,
0.0009873324268870032,73.8328616032,,,,,
0.0009968030267485928,74.123850065,,,,,
0.0010076921077226786,74.404939506,,,,,
0.0010194801534656336,74.7361532,,,,,
0.0010289704283065572,75.027161025,,,,,
0.0010398591590147432,75.308269292,,,,,
0.0010530453530699163,75.62959948000001,,,,,
0.0010633344594783937,75.95071809299999,,,,,
0.001074822171647252,76.251913218,,,,,
0.001085710403102538,76.55306936100001,,,,,
0.0010974975292035534,76.824268194,,,,,
0.0011092845163698647,77.12550669600002,,,,,
0.0011201723725994515,77.396649048,,,,,
0.0011339568278695257,77.69805630600001,,,,,
0.0011486400603523792,77.98953047,,,,,
0.0011609258647199536,78.27081388800002,,,,,
0.001173311400890884,78.56212378,,,,,
0.001185596902156796,78.85343298800001,,,,,
0.0011979821327693615,79.11472127399999,,,,,
0.0012119652732970139,79.376142856,,,,,
0.0012272466247001783,79.62766284,,,,,
0.0012395314633667687,79.89897594,,,,,
0.001255012142705176,80.190577022,,,,,
0.001267396513629141,80.471925234,,,,,
0.0012819779150519716,80.74344499200001,,,,,
0.001295760140116588,81.014907906,,,,,
0.0013104409970134245,81.25641199500001,,,,,
0.0013241229621313232,81.507855,,,,,
0.0013394025997226363,81.749422092,,,,,
0.0013548817330771735,81.97098578800001,,,,,
0.0013706602159602927,82.21260835999999,,,,,
0.0013867380341987812,82.484304849,,,,,
0.0014022164348648273,82.70589028799999,,,,,
0.0014173950209159113,82.93747188799999,,,,,
0.0014357687905230227,83.139283136,,,,,
0.0014529439655255475,83.35101642000001,,,,,
0.0014690204608857052,83.572679845,,,,,
0.0014844975880138566,83.814329864,,,,,
0.0015005735761144292,83.98593256199999,,,,,
0.0015180471831051988,84.20773433599999,,,,,
0.0015355204847743622,84.43955917699999,,,,,
0.0015521947222441271,84.641277834,,,,,
0.0015688686816883327,84.85301887199999,,,,,
0.0015848434718722998,85.054691612,,,,,
0.0016024154463307508,85.216442796,,,,,
0.001622782575821092,85.398470766,,,,,
0.0016396550306953853,85.57019063000001,,,,,
0.0016571262076216999,85.76200077,,,,,
0.0016760945683964884,85.9439295,,,,,
0.001695561722441503,86.145942,,,,,
0.0017139303818352258,86.30779886399999,,,,,
0.0017333967993457345,86.469756568,,,,,
0.001752363713461312,86.631677272,,,,,
0.0017744247767885139,86.76381936,,,,,
0.0017933909127533095,86.9157342,,,,,
0.00181225687007711,87.06764604899999,,,,,
0.0018332186274477808,87.22976474299999,,,,,
0.001852183648363764,87.35164154099999,,,,,
0.0018713479357149805,87.50359655400001,,,,,
0.0018931069417483235,87.62572795399998,,,,,
0.0019134681516082667,87.75776112700001,,,,,
0.0019338289468975624,87.889799604,,,,,
0.001954189327633314,88.03186294599999,,,,,
0.0019745492938326235,88.123833175,,,,,
0.0019963060544472876,88.27605022999998,,,,,
0.0020184615352252036,88.388228305,,,,,
0.0020393191744036625,88.48025562,,,,,
0.0020633697876730884,88.61265216500001,,,,,
0.0020860227408881055,88.704847464,,,,,
0.0021092739169072507,88.83718447500002,,,,,
0.0021310277465798632,88.89924504299998,,,,,
0.0021545772305828314,88.97148958199999,,,,,
0.0021778268127026347,89.063754374,,,,,
0.0022018740950491542,89.146072485,,,,,
0.002225122577575409,89.22832322800001,,,,,
0.0022497673744638572,89.30067993,,,,,
0.002274611109615836,89.373057924,,,,,
0.0023001526195595267,89.445501872,,,,,
0.0023239974247976996,89.50777431,,,,,
0.002347442599430111,89.57001387199999,,,,,
0.0023720843819879673,89.622339809,,,,,
0.002396126993477715,89.67461454,,,,,
0.0024207675764093017,89.736969624,,,,,
0.0024457068194267003,89.789330059,,,,,
0.0024726405033118695,89.84187223400001,,,,,
0.002498176955851187,89.874241545,,,,,
0.0025228150243714886,89.90653168000001,,,,,
0.0025483501956800316,89.95895506800001,,,,,
0.0025743834295481834,89.99137435200001,,,,,
0.0025999172840994295,90.02375030700001,,,,,
0.0026230567766414173,90.05591223,,,,,
0.0026537756205301673,90.10881155100002,,,,,
0.002680105307103569,90.111184119,,,,,
0.0027061351112309022,90.14361102000001,,,,,
0.002733061781830489,90.16609305600001,,,,,
0.0027599877274040088,90.18857617200001,,,,,
0.002786912947990504,90.221088276,,,,,
0.0028130396912166393,90.22344549,,,,,
0.002839963483424425,90.23590312,,,,,
0.0028662882682506156,90.258336,,,,,
0.0028941080263332696,90.240789034,,,,,
0.0029227246760503115,90.24337145999999,,,,,
0.0029513405068783676,90.24595388600001,,,,,
0.0029799555188640813,90.26859600000002,,,,,
0.0030057781194933256,90.29098720599998,,,,,
0.003034391573810786,90.29357078,,,,,
0.0030602127688161515,90.295902298,,,,,
0.0030888246656347127,90.308516808,,,,,
0.0031174357438362773,90.301069446,,,,,
0.003146046003467245,90.33374754999998,,,,,
0.0031718643156199715,90.316016307,,,,,
0.0032004730181002423,90.33866428,,,,,
0.003229080902145849,90.31115168599999,,,,,
0.003257787642560404,90.343842155,,,,,
0.0032863938870263177,90.34642659,,,,,
0.003314999313198639,90.32894461500001,,,,,
0.003343603921123738,90.331528476,,,,,
0.00337230737419114,90.32408756000001,,,,,
0.0034009103429120382,90.326671134,,,,,
0.0034295124935267377,90.30918600000001,,,,,
0.0034581138260815947,90.33183828199999,,,,,
0.0034896042425838405,90.314613,,,,,
0.0035182038565110354,90.28709026800001,,,,,
0.00354690229846656,90.289681404,,,,,
0.0035755002737616333,90.29226354299999,,,,,
0.003604097431236125,90.27477347,,,,,
0.003632693770936366,90.26731864199999,,,,,
0.003661388927445168,90.24983555200001,,,,,
0.0036899836288886746,90.27249019199999,,,,,
0.003718577512698832,90.27507147,,,,,
0.0037500597282882774,90.27791357400001,,,,,
0.003778651894365363,90.29053271,,,,,
0.0038073428629484688,90.28308512399998,,,,,
0.003838822284176029,90.28592722799999,,,,,
0.0038674119124885056,90.26843100800001,,,,,
0.0038960007234572817,90.27101171199999,,,,,
0.003924588717129532,90.273592416,,,,,
0.0039532754990094015,90.25610289,,,,,
0.003981861855381022,90.25868302,,,,,
0.004013335783417509,90.23140321800001,,,,,
0.004041920422960309,90.223941986,,,,,
0.004067616021743836,90.256382651,,,,,
0.004099087250918052,90.239141025,,,,,
0.004124880969193045,90.241468658,,,,,
0.0041563503962489335,90.24430855,,,,,
0.004184930948121522,90.266971693,,,,,
0.0042135106831692895,90.219340416,,,,,
0.004244977321266334,90.24226444,,,,,
0.0042764429692452215,90.225018304,,,,,
0.00430511965947913,90.28786456,,,,,
0.004333695959821081,90.250270966,,,,,
0.004362271443581205,90.282981102,,,,,
0.004390846110806611,90.265472935,,,,,
0.004419519520571752,90.288149777,,,,,
0.004450880121136754,90.270892096,,,,,
0.004476664767078431,90.293309463,,,,,
0.00450812312582082,90.30619517000001,,,,,
0.004539580494966005,90.298990511,,,,,
0.00456526330942159,90.33144694399999,,,,,
0.004596718881166549,90.304150197,,,,,
0.004625386388549589,90.31678538999999,,,,,
0.004653953538449393,90.309318872,,,,,
0.004679633415689012,90.361872564,,,,,
0.004708298546251627,90.36446283599999,,,,,
0.00473974961913394,90.36730494,,,,,
0.0047683135022356556,90.369886218,,,,,
0.004799762687669533,90.372728322,,,,,
0.00482832485664067,90.3552128,,,,,
0.004856886209837832,90.377890878,,,,,
0.004885546259949045,90.390530125,,,,,
0.004914105978895592,90.413210214,,,,,
0.004942664882207666,90.425841902,,,,,
0.004971222969932294,90.41837449200001,,,,,
0.004999879743380511,90.420965628,,,,,
0.005028436197227966,90.42354776699999,,,,,
0.005059877203207452,90.436441546,,,,,
0.00509131722068116,90.429233871,,,,,
0.0051169858690749805,90.461709,,,,,
0.005148424091130727,90.464553,,,,,
0.0051769763034541835,90.46713600000001,,,,,
0.0052027422342993766,90.46946700000001,,,,,
0.005234177760485441,90.502468437,,,,,
0.00526272752449163,90.52515783,,,,,
0.005291276473432286,90.527742265,,,,,
0.005322709216664893,90.540641214,,,,,
0.00535135591956557,90.533181285,,,,,
0.005379902338406714,90.575981496,,,,,
0.0054084479423733125,90.598675541,,,,,
0.005436992731511443,90.581152662,,,,,
0.005465636160800396,90.623966478,,,,,
0.005494179317582864,90.656718488,,,,,
0.005522721659677008,90.62913994,,,,,
0.0055512631871288895,90.66189367199999,,,,,
0.005582687759456492,90.664742728,,,,,
0.0056112275754602505,90.71761167,,,,,
0.0056369823199902925,90.69983505100001,,,,,
0.005662636965898884,90.702161953,,,,,
0.005694058038602991,90.735183266,,,,,
0.005722694105711522,90.75789638399999,,,,,
0.005751229926296628,90.740370916,,,,,
0.0057797649326116925,90.773134125,,,,,
0.005808299124703626,90.80589905600002,,,,,
0.00583971562095166,90.848986176,,,,,
0.005868347517363356,90.861646248,,,,,
0.005896879181970585,90.86423871899999,,,,,
0.005925410032545375,90.88695005,,,,,
0.005953940069133734,90.86942366099998,,,,,
0.005982568695316669,90.92232519,,,,,
0.006011097101236152,90.904798512,,,,,
0.00603962469330913,90.957694739,,,,,
0.006071033923072932,90.960551695,,,,,
0.0060995598053681125,90.963146462,,,,,
0.0061281842630210165,90.98587321,,,,,
0.006156708515122382,91.01865382199999,,,,,
0.006185231953613996,91.021250024,,,,,
0.006213754578542052,91.05403321899999,,,,,
0.006245158339582305,91.046830056,,,,,
0.006270896762771425,91.07936220600001,,,,,
0.0062994169444537534,91.08195984299999,,,,,
0.0063279363127587375,91.09462096,,,,,
0.006359336488324091,91.11760898400001,,,,,
0.0063878541478368765,91.13027156499999,,,,,
0.0064164703545282874,91.13287940500001,,,,,
0.006444986384786703,91.13547819,,,,,
0.006473501601904545,91.158206865,,,,,
0.006502016005927745,91.14067576,,,,,
0.006530628945972811,91.19361119999998,,,,,
0.006562022757698773,91.226671668,,,,,
0.006590534637741891,91.26953724100001,,,,,
0.006619045704880661,91.28220587999999,,,,,
0.006647555959161879,91.30494179,,,,,
0.006676164735243575,91.317620935,,,,,
0.006704673361116431,91.350426128,,,,,
0.006733181174270488,91.35303036599998,,,,,
0.006761688174752522,91.39590598800001,,,,,
0.006790293685884241,91.40858858600001,,,,,
0.006818799058329575,91.441399522,,,,,
0.006847303618241591,91.44400605599999,,,,,
0.0068786874900724545,91.487152064,,,,,
0.006907190342966745,91.550175612,,,,,
0.006935692383471347,91.53264582,,,,,
0.006961413039766615,91.585349415,,,,,
0.0069927933306625206,91.588223435,,,,,
0.0070212929314467125,91.57069278000002,,,,,
0.007049791720026587,91.61358545899999,,,,,
0.007078388991114024,91.616205395,,,,,
0.007104006685356095,91.628623714,,,,,
0.007138261878906163,91.66197743800001,,,,,
0.007166757334255173,91.684733275,,,,,
0.007195251977636565,91.687345836,,,,,
0.007223845089319574,91.7101125,,,,,
0.0072523381060753496,91.67243448700002,,,,,
0.007280830311002032,91.71533876999999,,,,,
0.0073093217041463225,91.717951905,,,,,
0.007337911554453541,91.720574145,,,,,
0.007366401321343045,91.75340908799998,,,,,
0.007397768906361223,91.766361468,,,,,
0.0074262569680042705,91.789124829,,,,,
0.007454744218100561,91.81188933799999,,,,,
0.007483230656696772,91.794354543,,,,,
0.007511815535476441,91.817129313,,,,,
0.007537422128877855,91.82955612599999,,,,,
0.007568784349929121,91.83243614999999,,,,,
0.0075972675401596084,91.855204392,,,,,
0.007625849159441226,91.88805945,,,,,
0.007657208607390507,91.90101792,,,,,
0.0076828114780889386,91.89329375599999,,,,,
0.007714169139810234,91.92640768,,,,,
0.007742648189378063,91.929025694,,,,,
0.007796825605545219,91.984397671,,,,,
0.00783105707507423,91.98754648599999,,,,,
0.007859532796026695,92.04056046,,,,,
0.007888007706135344,92.07341891999998,,,,,
0.007916581016919031,92.10628824,,,,,
0.007947832140783878,92.08900712,,,,,
0.007976403742260732,92.121878537,,,,,
0.008004875324721742,92.11442106,,,,,
0.008064692768448465,92.150174193,,,,,
0.00809316183732793,92.17296018000002,,,,,
0.00812172928686363,92.205838008,,,,,
0.008150196732035722,92.20846290999998,,,,,
0.008178663366835669,92.21108781199999,,,,,
0.008207129191309386,92.21371271400001,,,,,
0.008235693385320464,92.226429459,,,,,
0.008261281449620466,92.248955295,,,,,
0.00829262097740579,92.251846379,,,,,
0.008321083558212936,92.25447214199998,,,,,
0.008349644497441524,92.287358592,,,,,
