x,y,type,temp,stress
0,0.0288,creep,1000,16
0.04,0.0339,,,
0.1,0.0373,,,
0.12,0.0401,,,
0.16,0.0415,,,
0.24,0.0445,,,
0.33,0.0484,,,
0.42,0.0509,,,
0.5,0.0537,,,
0.73,0.0592,,,
0.92,0.0629,,,
1.12,0.067,,,
1.32,0.0699,,,
1.65,0.0749,,,
2.24,0.0845,,,
2.5,0.0866,,,
2.7,0.0902,,,
3.05,0.0945,,,
3.42,0.0992,,,
3.85,0.105,,,
4.14,0.1099,,,
4.42,0.1131,,,
4.72,0.1172,,,
4.94,0.1199,,,
5.51,0.1267,,,
5.92,0.1327,,,
6.17,0.1349,,,
6.71,0.1415,,,
6.97,0.145,,,
7.44,0.151,,,
7.71,0.1545,,,
8.01,0.1582,,,
8.33,0.1621,,,
8.78,0.1677,,,
9.28,0.1742,,,
9.73,0.1803,,,
10.26,0.1863,,,
10.88,0.1937,,,
11.31,0.199,,,
11.83,0.2055,,,
12.15,0.2091,,,
12.71,0.2161,,,
13.2,0.222,,,
13.77,0.2295,,,
14.35,0.2382,,,
15.02,0.247,,,
15.53,0.2542,,,
16.07,0.2617,,,
16.5,0.2677,,,
16.8,0.2705,,,
17.14,0.2759,,,
17.4,0.2794,,,
17.8,0.2847,,,
18.75,0.2976,,,
19.22,0.3035,,,
19.55,0.3079,,,
19.92,0.3128,,,
20.26,0.3171,,,
20.96,0.3261,,,
21.27,0.3306,,,
21.59,0.3339,,,
21.99,0.3385,,,
22.51,0.3445,,,
22.98,0.3504,,,
23.54,0.3563,,,
23.94,0.3607,,,
24.48,0.3669,,,
24.78,0.3707,,,
25.43,0.3777,,,
25.83,0.3828,,,
26.25,0.3877,,,
26.7,0.3928,,,
26.95,0.3955,,,
27.41,0.4009,,,
28.06,0.4077,,,
28.53,0.4128,,,
29.42,0.4222,,,
29.98,0.4284,,,
30.43,0.4335,,,
30.77,0.4382,,,
31.05,0.4417,,,
31.35,0.4447,,,
31.62,0.4473,,,
32.04,0.4517,,,
32.37,0.4561,,,
32.87,0.4615,,,
33.62,0.4706,,,
33.99,0.4734,,,
34.54,0.4792,,,
35.09,0.4852,,,
35.42,0.4886,,,
35.67,0.491,,,
36.14,0.4957,,,
36.59,0.5004,,,
36.89,0.5044,,,
37.34,0.5095,,,
37.74,0.5132,,,
38.09,0.5175,,,
38.44,0.5209,,,
38.78,0.5242,,,
39.03,0.5266,,,
39.31,0.5301,,,
39.63,0.5332,,,
40.01,0.5372,,,
40.63,0.544,,,
40.98,0.5475,,,
41.38,0.5514,,,
41.85,0.5574,,,
42.15,0.5601,,,
42.63,0.5648,,,
42.93,0.5683,,,
43.7,0.5766,,,
44.05,0.5805,,,
44.55,0.5855,,,
45.08,0.5909,,,
45.42,0.5944,,,
46.15,0.6026,,,
46.52,0.6059,,,
47,0.61,,,
47.42,0.6148,,,
47.9,0.6196,,,
48.2,0.6233,,,
48.6,0.627,,,
48.87,0.6296,,,
49.35,0.634,,,
49.67,0.638,,,
50.04,0.641,,,
50.39,0.6448,,,
50.86,0.6496,,,
51.39,0.6549,,,
51.92,0.6595,,,
52.24,0.6627,,,
52.59,0.6657,,,
52.86,0.6682,,,
53.23,0.6719,,,
53.56,0.6744,,,
53.89,0.6785,,,
54.39,0.6836,,,
54.73,0.6867,,,
55.14,0.6908,,,
55.75,0.697,,,
56.31,0.7025,,,
56.56,0.7056,,,
56.81,0.708,,,
57.18,0.7118,,,
57.48,0.715,,,
57.76,0.7176,,,
58.1,0.72,,,
58.41,0.7229,,,
58.88,0.729,,,
59.2,0.731,,,
59.87,0.7372,,,
60.12,0.7405,,,
60.65,0.7451,,,
61.02,0.7479,,,
61.48,0.7522,,,
61.77,0.7561,,,
62.12,0.7592,,,
62.42,0.7618,,,
63.25,0.7706,,,
63.55,0.7731,,,
63.8,0.7762,,,
64.2,0.7796,,,
64.52,0.7825,,,
64.86,0.7857,,,
65.39,0.7919,,,
65.84,0.7953,,,
66.31,0.7999,,,
66.61,0.8031,,,
66.87,0.8056,,,
67.22,0.8084,,,
68.11,0.818,,,
68.49,0.8209,,,
68.98,0.8253,,,
69.26,0.8283,,,
69.76,0.832,,,
70.29,0.838,,,
71,0.8442,,,
71.91,0.8528,,,
72.36,0.8566,,,
72.65,0.8599,,,
73.01,0.8627,,,
73.46,0.8669,,,
73.8,0.8704,,,
74.07,0.8728,,,
74.6,0.8772,,,
74.85,0.8801,,,
75.33,0.8841,,,
75.85,0.889,,,
76.1,0.8907,,,
76.82,0.8983,,,
77.44,0.9048,,,
77.7,0.9068,,,
77.95,0.9094,,,
78.2,0.9102,,,
79.19,0.9205,,,
79.71,0.9251,,,
80.07,0.9288,,,
80.49,0.9316,,,
81.01,0.9361,,,
81.61,0.9425,,,
81.91,0.9446,,,
82.21,0.9476,,,
82.47,0.9495,,,
82.73,0.9514,,,
83.41,0.9582,,,
83.73,0.9613,,,
84.09,0.9655,,,
84.36,0.9667,,,
84.66,0.9704,,,
85.06,0.9739,,,
85.65,0.979,,,
86.2,0.9842,,,
86.66,0.988,,,
87.03,0.9917,,,
87.35,0.9947,,,
87.9,0.9997,,,
88.25,1.0033,,,
88.72,1.0071,,,
88.97,1.01,,,
89.22,1.0114,,,
89.88,1.0172,,,
90.47,1.022,,,
90.83,1.0253,,,
91.38,1.0314,,,
91.63,1.0321,,,
92.12,1.0363,,,
92.45,1.0387,,,
92.99,1.044,,,
93.37,1.0467,,,
93.74,1.0504,,,
94.2,1.0546,,,
94.45,1.057,,,
94.87,1.0613,,,
95.51,1.0664,,,
95.99,1.0713,,,
96.76,1.0781,,,
97.07,1.0819,,,
97.51,1.0848,,,
97.78,1.0875,,,
98.08,1.09,,,
98.49,1.094,,,
98.86,1.0964,,,
99.36,1.1015,,,
99.64,1.1043,,,
99.91,1.1064,,,
100.19,1.108,,,
100.8,1.1133,,,
101.43,1.1185,,,
101.7,1.1218,,,
101.96,1.1234,,,
102.45,1.1277,,,
102.73,1.1309,,,
103.21,1.1343,,,
103.53,1.1377,,,
103.78,1.1391,,,
104.15,1.1417,,,
104.57,1.1461,,,
105.28,1.1523,,,
105.75,1.1565,,,
106.12,1.16,,,
106.37,1.1618,,,
106.65,1.1642,,,
107.04,1.1682,,,
107.59,1.1725,,,
108.12,1.1772,,,
108.4,1.1799,,,
109.19,1.1862,,,
109.82,1.1931,,,
110.12,1.1955,,,
110.42,1.1977,,,
110.67,1.2003,,,
111.09,1.2037,,,
111.42,1.2067,,,
111.69,1.2093,,,
112.19,1.2135,,,
112.69,1.2174,,,
113.18,1.2204,,,
113.53,1.2245,,,
113.86,1.2266,,,
114.33,1.231,,,
114.91,1.2353,,,
115.31,1.2399,,,
116.15,1.2473,,,
116.48,1.2494,,,
116.88,1.2528,,,
117.33,1.257,,,
117.8,1.2613,,,
118.25,1.2642,,,
118.9,1.2696,,,
119.43,1.2758,,,
119.92,1.279,,,
120.27,1.2823,,,
120.57,1.285,,,
121.23,1.2907,,,
121.72,1.2944,,,
122.05,1.2975,,,
122.6,1.3021,,,
123.07,1.3058,,,
123.5,1.3096,,,
124.07,1.3142,,,
124.32,1.3166,,,
125.11,1.323,,,
125.61,1.3268,,,
125.86,1.3302,,,
126.44,1.3343,,,
126.84,1.3377,,,
127.11,1.3394,,,
127.93,1.3471,,,
128.31,1.3502,,,
128.69,1.3532,,,
128.96,1.3564,,,
129.26,1.3591,,,
129.58,1.3604,,,
130.06,1.3647,,,
130.39,1.3675,,,
130.66,1.3696,,,
131.08,1.3739,,,
131.48,1.377,,,
131.93,1.3804,,,
132.25,1.3837,,,
132.71,1.3882,,,
133.16,1.391,,,
133.58,1.3952,,,
133.9,1.3968,,,
134.23,1.401,,,
134.48,1.4024,,,
134.85,1.4052,,,
135.5,1.4119,,,
135.78,1.4136,,,
136.2,1.4181,,,
136.7,1.4217,,,
137.15,1.4256,,,
137.42,1.4281,,,
137.7,1.43,,,
137.97,1.4329,,,
138.27,1.4369,,,
138.62,1.4379,,,
138.87,1.4395,,,
139.14,1.4438,,,
139.42,1.4441,,,
139.67,1.446,,,
140.24,1.4512,,,
140.56,1.4539,,,
140.92,1.4563,,,
141.22,1.4594,,,
141.47,1.4619,,,
141.97,1.4656,,,
142.36,1.4683,,,
142.63,1.4709,,,
143.23,1.476,,,
143.66,1.4794,,,
144.16,1.4845,,,
144.69,1.4889,,,
145.18,1.4943,,,
145.71,1.498,,,
146.3,1.5032,,,
146.61,1.5056,,,
147.06,1.5097,,,
147.33,1.5112,,,
147.86,1.5153,,,
148.35,1.5193,,,
148.67,1.5219,,,
148.92,1.5242,,,
149.53,1.5299,,,
150,1.5321,,,
150.37,1.5359,,,
150.85,1.5406,,,
151.25,1.5439,,,
151.6,1.5468,,,
151.9,1.5491,,,
152.3,1.5536,,,
152.6,1.5553,,,
152.85,1.5574,,,
153.27,1.5613,,,
153.85,1.5656,,,
154.45,1.5691,,,
154.99,1.5752,,,
155.42,1.5784,,,
155.87,1.5828,,,
156.19,1.584,,,
156.79,1.5908,,,
157.22,1.5928,,,
157.48,1.5956,,,
157.76,1.5984,,,
158.06,1.5993,,,
158.31,1.6023,,,
158.66,1.6045,,,
159.38,1.6116,,,
159.69,1.6137,,,
160.11,1.6166,,,
160.58,1.6202,,,
161.03,1.6255,,,
161.46,1.628,,,
161.75,1.6304,,,
162.58,1.6385,,,
163.01,1.6415,,,
163.4,1.6444,,,
163.78,1.6474,,,
164.2,1.651,,,
164.57,1.6532,,,
164.92,1.6573,,,
165.32,1.6602,,,
165.63,1.6618,,,
165.97,1.6665,,,
166.43,1.6682,,,
166.87,1.6724,,,
167.2,1.6744,,,
167.7,1.678,,,
168.32,1.6837,,,
168.57,1.6868,,,
168.95,1.689,,,
169.5,1.6936,,,
169.86,1.6956,,,
170.34,1.6996,,,
170.62,1.7025,,,
171.07,1.7061,,,
171.72,1.7107,,,
172.19,1.7151,,,
172.51,1.7178,,,
173.13,1.7232,,,
173.38,1.7249,,,
173.74,1.7283,,,
174.03,1.7301,,,
174.29,1.7337,,,
174.84,1.7367,,,
175.23,1.7396,,,
175.86,1.7459,,,
176.21,1.7479,,,
176.48,1.7507,,,
176.86,1.7533,,,
177.36,1.7582,,,
178.03,1.7628,,,
178.3,1.7659,,,
178.93,1.7704,,,
179.25,1.7731,,,
179.52,1.7748,,,
179.93,1.7783,,,
180.65,1.7842,,,
181.47,1.7906,,,
182.05,1.7962,,,
182.42,1.7981,,,
182.87,1.8019,,,
183.15,1.8047,,,
183.55,1.8071,,,
183.89,1.8109,,,
184.14,1.8123,,,
184.49,1.8159,,,
184.79,1.8186,,,
185.12,1.8205,,,
185.46,1.8229,,,
186.09,1.8285,,,
186.59,1.8318,,,
187.01,1.8355,,,
187.78,1.8414,,,
188.21,1.8437,,,
188.58,1.8479,,,
189.34,1.8538,,,
189.68,1.8569,,,
190.11,1.8604,,,
190.38,1.862,,,
190.86,1.8667,,,
191.3,1.8698,,,
191.61,1.8729,,,
191.86,1.8745,,,
192.33,1.8796,,,
192.65,1.8818,,,
193.2,1.8863,,,
193.48,1.8889,,,
193.9,1.8912,,,
194.57,1.8963,,,
195.17,1.9017,,,
195.6,1.9054,,,
195.93,1.9072,,,
196.25,1.9104,,,
197.02,1.9158,,,
197.7,1.9224,,,
198.02,1.9252,,,
198.37,1.9275,,,
198.92,1.9321,,,
199.2,1.9347,,,
199.49,1.937,,,
199.94,1.9403,,,
200.32,1.9428,,,
200.94,1.9491,,,
201.27,1.9505,,,
201.91,1.9564,,,
202.46,1.9599,,,
202.93,1.9646,,,
203.24,1.9655,,,
203.84,1.9706,,,
204.26,1.9746,,,
204.54,1.9767,,,
204.88,1.9798,,,
205.14,1.9814,,,
205.48,1.9852,,,
205.85,1.9881,,,
206.38,1.9916,,,
206.83,1.9953,,,
207.13,1.9976,,,
207.41,2.001,,,
207.73,2.0033,,,
208.05,2.0058,,,
208.33,2.0069,,,
208.62,2.0099,,,
209.07,2.0121,,,
209.42,2.0156,,,
209.78,2.0174,,,
210.35,2.0227,,,
210.7,2.0249,,,
211,2.0285,,,
211.37,2.0307,,,
211.85,2.0353,,,
212.1,2.0366,,,
212.74,2.0412,,,
213.35,2.0472,,,
213.62,2.0487,,,
213.92,2.0507,,,
214.27,2.0533,,,
214.62,2.0572,,,
215.12,2.0611,,,
215.62,2.0642,,,
215.97,2.0669,,,
216.31,2.0682,,,
216.97,2.0757,,,
217.51,2.0792,,,
217.83,2.0818,,,
218.36,2.086,,,
218.74,2.0891,,,
219.16,2.0926,,,
219.83,2.0983,,,
220.31,2.1014,,,
220.65,2.1048,,,
221.21,2.1091,,,
221.5,2.1118,,,
221.91,2.1142,,,
222.33,2.1179,,,
222.65,2.1199,,,
223.3,2.1253,,,
223.62,2.1285,,,
223.95,2.1317,,,
224.25,2.133,,,
224.87,2.1384,,,
225.15,2.1409,,,
225.4,2.1426,,,
225.68,2.1447,,,
226.7,2.1529,,,
227.05,2.1548,,,
227.5,2.1591,,,
228.02,2.1632,,,
228.3,2.166,,,
228.72,2.1698,,,
228.97,2.17,,,
229.47,2.1757,,,
230.17,2.1807,,,
230.62,2.1866,,,
231.02,2.1872,,,
231.56,2.1915,,,
231.84,2.1943,,,
232.47,2.1988,,,
232.94,2.2025,,,
233.38,2.2062,,,
233.68,2.2086,,,
234.13,2.2115,,,
234.41,2.214,,,
234.94,2.2194,,,
235.28,2.2213,,,
235.93,2.2269,,,
236.18,2.2285,,,
236.43,2.2299,,,
236.71,2.2326,,,
237.03,2.2361,,,
237.35,2.2375,,,
238.08,2.2428,,,
238.38,2.2464,,,
238.92,2.2499,,,
239.38,2.2542,,,
239.83,2.2573,,,
240.42,2.2616,,,
241.03,2.2663,,,
241.42,2.2694,,,
241.72,2.2725,,,
242.07,2.2754,,,
242.47,2.2781,,,
243.09,2.2834,,,
243.62,2.2863,,,
244.02,2.2896,,,
244.52,2.294,,,
244.77,2.2958,,,
245.26,2.2997,,,
245.62,2.3031,,,
245.96,2.3048,,,
246.49,2.3101,,,
246.87,2.3123,,,
247.39,2.3164,,,
247.96,2.3209,,,
248.31,2.3242,,,
248.63,2.3263,,,
249.18,2.3308,,,
249.54,2.332,,,
249.96,2.3372,,,
250.28,2.3385,,,
250.59,2.3421,,,
251.2,2.3464,,,
251.5,2.3487,,,
251.93,2.3516,,,
252.48,2.3574,,,
253.11,2.3605,,,
253.68,2.3666,,,
254.3,2.3696,,,
254.82,2.3746,,,
255.45,2.3797,,,
255.73,2.3821,,,
256.4,2.387,,,
256.92,2.3904,,,
257.32,2.3943,,,
257.82,2.3971,,,
258.1,2.3996,,,
258.57,2.403,,,
259.14,2.4076,,,
259.49,2.4107,,,
259.84,2.4125,,,
260.14,2.4144,,,
260.59,2.4176,,,
260.97,2.4205,,,
261.39,2.4233,,,
261.89,2.4276,,,
262.47,2.432,,,
262.73,2.4345,,,
263.03,2.4369,,,
263.41,2.4406,,,
263.88,2.4434,,,
264.51,2.449,,,
265.09,2.4522,,,
265.64,2.457,,,
265.93,2.4599,,,
266.18,2.462,,,
266.53,2.4643,,,
267.03,2.4684,,,
267.48,2.4721,,,
267.91,2.4746,,,
268.41,2.479,,,
268.77,2.4808,,,
269.27,2.485,,,
269.62,2.4878,,,
270,2.4909,,,
270.43,2.4934,,,
270.78,2.4964,,,
271.42,2.5018,,,
272.1,2.5066,,,
272.54,2.5096,,,
273.05,2.515,,,
273.55,2.5189,,,
273.8,2.5198,,,
274.34,2.5228,,,
274.62,2.5257,,,
275.29,2.5317,,,
275.92,2.5378,,,
276.41,2.5416,,,
276.77,2.5442,,,
277.39,2.55,,,
277.66,2.5524,,,
278.04,2.5543,,,
278.31,2.5544,,,
278.59,2.558,,,
278.84,2.559,,,
279.21,2.5616,,,
279.94,2.5667,,,
280.24,2.5692,,,
280.61,2.5718,,,
280.91,2.5745,,,
281.18,2.5775,,,
281.61,2.5792,,,
282,2.5839,,,
282.36,2.5864,,,
282.71,2.5886,,,
283.28,2.594,,,
283.67,2.5975,,,
283.93,2.5987,,,
284.43,2.6016,,,
284.72,2.6052,,,
284.98,2.6071,,,
285.32,2.6091,,,
285.78,2.6135,,,
286.18,2.6159,,,
286.47,2.6188,,,
286.97,2.6215,,,
287.59,2.6265,,,
287.89,2.6295,,,
288.25,2.6322,,,
288.84,2.6372,,,
289.22,2.6399,,,
289.47,2.6415,,,
289.74,2.6444,,,
289.99,2.6446,,,
290.54,2.6502,,,
291.04,2.6526,,,
291.54,2.658,,,
291.99,2.6609,,,
292.46,2.665,,,
293.11,2.6695,,,
293.46,2.6721,,,
293.86,2.6761,,,
294.33,2.6794,,,
294.76,2.6828,,,
295.48,2.687,,,
295.79,2.6905,,,
296.31,2.694,,,
296.78,2.6983,,,
297.1,2.7002,,,
297.48,2.7037,,,
297.8,2.7064,,,
298.05,2.7076,,,
298.36,2.7099,,,
298.66,2.7124,,,
299.15,2.7158,,,
299.68,2.7202,,,
300.22,2.7247,,,
300.48,2.7284,,,
300.93,2.7291,,,
301.52,2.7354,,,
301.77,2.7379,,,
302.05,2.7386,,,
302.55,2.7417,,,
302.87,2.7448,,,
303.75,2.7512,,,
304.05,2.753,,,
304.32,2.7553,,,
305.05,2.7599,,,
305.39,2.764,,,
305.77,2.7666,,,
306.31,2.7699,,,
307.12,2.7772,,,
307.56,2.7815,,,
307.81,2.7831,,,
308.06,2.7836,,,
308.41,2.7867,,,
309.06,2.792,,,
309.44,2.7943,,,
309.73,2.7954,,,
309.98,2.7958,,,
310.39,2.8002,,,
310.71,2.8027,,,
311.06,2.8052,,,
311.34,2.8085,,,
311.8,2.8114,,,
312.2,2.815,,,
312.48,2.8174,,,
312.78,2.8193,,,
313.25,2.8229,,,
313.55,2.8251,,,
314.28,2.831,,,
314.72,2.8342,,,
315.3,2.8393,,,
315.68,2.8415,,,
316.12,2.8447,,,
316.48,2.8482,,,
316.73,2.8507,,,
317.03,2.8524,,,
317.32,2.8555,,,
317.62,2.8574,,,
317.94,2.8594,,,
318.32,2.8624,,,
318.57,2.8637,,,
319.14,2.8694,,,
319.64,2.8731,,,
319.89,2.8749,,,
320.14,2.8768,,,
320.66,2.8805,,,
321.46,2.8862,,,
322.04,2.8915,,,
322.56,2.8953,,,
322.87,2.8983,,,
323.46,2.9022,,,
323.78,2.9043,,,
324.46,2.9088,,,
324.71,2.9116,,,
325.19,2.9149,,,
325.66,2.9187,,,
325.93,2.9203,,,
326.19,2.9223,,,
326.53,2.924,,,
327.21,2.9295,,,
327.68,2.9339,,,
328.05,2.9361,,,
328.56,2.9406,,,
328.88,2.9437,,,
329.52,2.9477,,,
330.12,2.9523,,,
330.65,2.9565,,,
330.93,2.9586,,,
331.38,2.9629,,,
332.05,2.9672,,,
332.49,2.9706,,,
332.74,2.972,,,
333.07,2.9748,,,
333.4,2.9778,,,
333.75,2.9808,,,
334.02,2.9822,,,
334.34,2.9859,,,
334.77,2.9888,,,
335.42,2.9924,,,
335.87,2.9969,,,
336.34,3.0006,,,
336.62,3.0018,,,
336.99,3.0051,,,
337.69,3.0109,,,
338.29,3.0165,,,
338.58,3.0183,,,
339.09,3.0217,,,
339.68,3.0258,,,
339.96,3.0278,,,
340.31,3.0309,,,
340.79,3.0336,,,
341.28,3.0376,,,
341.65,3.0414,,,
341.95,3.0441,,,
342.2,3.0453,,,
342.5,3.0475,,,
342.9,3.0497,,,
343.35,3.0545,,,
343.8,3.0582,,,
344.25,3.0612,,,
344.85,3.0652,,,
345.13,3.0676,,,
345.45,3.0703,,,
345.9,3.0739,,,
346.3,3.0764,,,
346.68,3.08,,,
346.97,3.0802,,,
347.2,3.0837,,,
347.64,3.0864,,,
347.92,3.0881,,,
348.25,3.0915,,,
348.74,3.0949,,,
349.04,3.097,,,
349.35,3.099,,,
349.7,3.1016,,,
350.12,3.1048,,,
350.42,3.108,,,
350.72,3.1099,,,
351.11,3.1126,,,
351.56,3.1164,,,
351.91,3.1183,,,
352.57,3.1233,,,
352.94,3.1264,,,
353.58,3.1309,,,
353.94,3.1345,,,
354.46,3.1379,,,
354.89,3.1407,,,
355.28,3.1453,,,
355.76,3.1482,,,
356.31,3.1513,,,
356.65,3.1544,,,
356.91,3.1561,,,
357.23,3.1585,,,
357.61,3.1611,,,
358,3.1645,,,
358.28,3.1671,,,
358.56,3.1684,,,
358.9,3.171,,,
359.35,3.1742,,,
359.72,3.1766,,,
360.03,3.1792,,,
360.37,3.1812,,,
360.88,3.1866,,,
361.18,3.1881,,,
361.5,3.1902,,,
361.87,3.1931,,,
362.59,3.198,,,
362.94,3.2008,,,
363.19,3.2035,,,
363.54,3.2051,,,
363.89,3.2081,,,
364.2,3.2096,,,
364.72,3.2139,,,
365.14,3.2177,,,
365.42,3.2191,,,
365.69,3.2212,,,
366.01,3.2243,,,
366.34,3.2262,,,
366.94,3.2302,,,
367.29,3.2331,,,
368.14,3.24,,,
368.63,3.2439,,,
369.06,3.2472,,,
369.76,3.2519,,,
370.04,3.2552,,,
370.79,3.2604,,,
371.14,3.2633,,,
371.93,3.2692,,,
372.28,3.2719,,,
372.56,3.274,,,
372.81,3.2754,,,
373.55,3.2814,,,
373.8,3.2831,,,
374.18,3.2863,,,
374.43,3.2876,,,
374.9,3.2909,,,
375.23,3.2944,,,
375.77,3.2979,,,
376.22,3.3018,,,
376.57,3.305,,,
376.85,3.3071,,,
377.1,3.3086,,,
377.47,3.3118,,,
377.72,3.3129,,,
378.07,3.3152,,,
378.62,3.3193,,,
378.87,3.3216,,,
379.42,3.326,,,
379.69,3.328,,,
380.1,3.3309,,,
380.61,3.3343,,,
381.07,3.3376,,,
381.97,3.3458,,,
382.56,3.3487,,,
383.11,3.3537,,,
383.66,3.358,,,
383.91,3.3594,,,
384.16,3.3617,,,
384.41,3.364,,,
384.89,3.3672,,,
385.28,3.3699,,,
385.98,3.3748,,,
386.31,3.3778,,,
386.61,3.3804,,,
387,3.3825,,,
387.63,3.3875,,,
388.46,3.3937,,,
388.76,3.3956,,,
389.05,3.3972,,,
389.52,3.4007,,,
389.9,3.4041,,,
390.22,3.4071,,,
390.55,3.4082,,,
391.33,3.4148,,,
391.6,3.4169,,,
392.32,3.422,,,
392.59,3.424,,,
392.85,3.4263,,,
393.24,3.4291,,,
393.65,3.4323,,,
394.05,3.4355,,,
394.3,3.4372,,,
394.75,3.44,,,
395.07,3.4421,,,
395.64,3.4468,,,
395.97,3.4492,,,
396.47,3.4528,,,
397.22,3.4588,,,
397.57,3.461,,,
398.23,3.466,,,
398.63,3.4688,,,
399.21,3.4732,,,
399.63,3.4763,,,
399.89,3.4784,,,
400.34,3.4818,,,
400.59,3.484,,,
401,3.4857,,,
401.83,3.4921,,,
402.21,3.4941,,,
402.7,3.4975,,,
403.11,3.5004,,,
403.58,3.5041,,,
403.9,3.5059,,,
404.45,3.5094,,,
404.93,3.5132,,,
405.2,3.5147,,,
405.53,3.5165,,,
406.02,3.5203,,,
406.52,3.5237,,,
406.97,3.5268,,,
407.39,3.53,,,
407.9,3.5339,,,
408.25,3.5369,,,
408.5,3.5379,,,
409.44,3.5455,,,
410.07,3.5496,,,
410.32,3.5517,,,
410.86,3.556,,,
411.26,3.5589,,,
411.84,3.5641,,,
412.19,3.566,,,
412.76,3.5697,,,
413.19,3.5732,,,
413.68,3.5776,,,
414.03,3.5799,,,
414.36,3.5821,,,
414.96,3.5867,,,
415.48,3.5904,,,
415.84,3.5931,,,
416.33,3.5969,,,
416.68,3.5996,,,
417.18,3.6032,,,
417.6,3.6058,,,
418.16,3.6106,,,
418.48,3.613,,,
418.8,3.6153,,,
419.23,3.618,,,
419.48,3.6198,,,
419.75,3.6217,,,
420.05,3.6252,,,
420.37,3.6263,,,
420.77,3.6296,,,
421.08,3.6318,,,
421.53,3.6352,,,
422.09,3.6403,,,
422.37,3.6419,,,
422.84,3.6449,,,
423.29,3.6487,,,
423.55,3.6504,,,
423.8,3.6527,,,
424.05,3.654,,,
424.35,3.6562,,,
424.67,3.6584,,,
424.92,3.6598,,,
425.42,3.6639,,,
425.71,3.666,,,
426.02,3.6674,,,
426.32,3.67,,,
426.86,3.6739,,,
427.12,3.6763,,,
427.56,3.6791,,,
427.84,3.6807,,,
428.33,3.685,,,
428.66,3.6873,,,
429.21,3.6913,,,
429.46,3.6937,,,
429.78,3.6952,,,
430.04,3.6971,,,
430.56,3.7012,,,
430.93,3.7039,,,
431.66,3.7095,,,
432.01,3.7127,,,
432.31,3.7147,,,
432.76,3.7177,,,
433.15,3.7213,,,
433.45,3.7243,,,
433.85,3.7264,,,
434.38,3.7303,,,
434.82,3.7342,,,
435.3,3.7368,,,
435.68,3.7404,,,
436.35,3.7451,,,
436.93,3.7492,,,
437.24,3.7524,,,
437.64,3.7549,,,
438,3.7574,,,
438.32,3.7591,,,
438.9,3.7645,,,
439.22,3.7668,,,
439.47,3.7682,,,
440.19,3.7735,,,
440.46,3.7755,,,
440.72,3.7774,,,
441.02,3.7799,,,
441.29,3.7824,,,
441.77,3.7845,,,
442.09,3.7871,,,
442.59,3.7916,,,
442.92,3.7934,,,
443.51,3.7982,,,
443.91,3.8012,,,
444.24,3.8035,,,
444.59,3.8056,,,
444.96,3.8083,,,
445.28,3.8107,,,
445.53,3.8132,,,
446.04,3.8169,,,
446.4,3.8201,,,
446.66,3.8216,,,
447.18,3.8248,,,
447.5,3.8269,,,
448.03,3.8317,,,
448.41,3.8339,,,
448.86,3.8371,,,
449.18,3.8391,,,
450.18,3.8463,,,
450.7,3.851,,,
450.98,3.8529,,,
451.27,3.855,,,
451.72,3.8574,,,
452.25,3.8621,,,
452.5,3.8639,,,
452.94,3.8677,,,
453.24,3.8701,,,
453.67,3.8737,,,
453.94,3.875,,,
454.37,3.8789,,,
454.8,3.8818,,,
455.07,3.8833,,,
455.44,3.8861,,,
455.87,3.8893,,,
456.41,3.8937,,,
456.82,3.8967,,,
457.24,3.8998,,,
457.49,3.9024,,,
457.82,3.9049,,,
458.08,3.9061,,,
458.43,3.909,,,
459.11,3.9139,,,
459.46,3.9162,,,
459.71,3.9184,,,
460.19,3.9215,,,
460.53,3.9246,,,
460.94,3.9278,,,
461.21,3.9289,,,
461.46,3.9315,,,
461.98,3.9352,,,
462.31,3.938,,,
462.88,3.9424,,,
463.36,3.9452,,,
463.97,3.9498,,,
464.32,3.9521,,,
464.7,3.9551,,,
464.97,3.9569,,,
465.35,3.9596,,,
465.78,3.9626,,,
466.38,3.9667,,,
466.99,3.971,,,
467.3,3.9742,,,
467.57,3.9765,,,
468.14,3.9807,,,
468.44,3.983,,,
468.75,3.9854,,,
469.04,3.9865,,,
469.4,3.9891,,,
469.74,3.9927,,,
470.06,3.9952,,,
470.31,3.9965,,,
470.79,4.0011,,,
471.31,4.0039,,,
471.94,4.0092,,,
472.26,4.011,,,
472.59,4.0132,,,
472.94,4.0161,,,
473.23,4.0183,,,
473.66,4.0212,,,
474.16,4.0247,,,
